[{
    "id" : "document",
    "name" : "CZML Wall",
    "version" : "1.0"
}
,{
"id" : "99999-2015060412.edt.txt",
"wall" : {
    "positions" : {
        "cartographicDegrees" : [
120.690000,23.100000,457,
120.689995,23.099993,457,
120.689989,23.099987,463,
120.689981,23.099982,468,
120.689971,23.099978,475,
120.689961,23.099976,481,
120.689949,23.099976,487,
120.689937,23.099977,492,
120.689926,23.099980,497,
120.689914,23.099984,502,
120.689903,23.099988,507,
120.689893,23.099993,512,
120.689882,23.099998,517,
120.689873,23.100003,522,
120.689864,23.100007,528,
120.689855,23.100011,534,
120.689847,23.100015,540,
120.689840,23.100019,545,
120.689832,23.100023,551,
120.689825,23.100027,557,
120.689819,23.100031,563,
120.689812,23.100035,568,
120.689807,23.100038,573,
120.689802,23.100043,577,
120.689797,23.100047,582,
120.689792,23.100051,587,
120.689787,23.100056,592,
120.689783,23.100061,597,
120.689779,23.100066,603,
120.689775,23.100073,608,
120.689772,23.100079,614,
120.689769,23.100086,620,
120.689766,23.100093,626,
120.689764,23.100100,631,
120.689762,23.100108,637,
120.689761,23.100116,644,
120.689760,23.100125,650,
120.689760,23.100134,656,
120.689760,23.100144,661,
120.689761,23.100153,667,
120.689763,23.100163,673,
120.689765,23.100174,680,
120.689768,23.100184,686,
120.689771,23.100196,692,
120.689775,23.100207,697,
120.689780,23.100219,702,
120.689785,23.100230,708,
120.689791,23.100242,714,
120.689797,23.100254,719,
120.689803,23.100266,725,
120.689810,23.100278,730,
120.689818,23.100291,735,
120.689826,23.100304,740,
120.689833,23.100316,745,
120.689841,23.100328,751,
120.689849,23.100341,757,
120.689858,23.100353,763,
120.689866,23.100366,770,
120.689874,23.100378,776,
120.689882,23.100390,782,
120.689890,23.100403,788,
120.689897,23.100415,793,
120.689904,23.100426,799,
120.689912,23.100438,804,
120.689918,23.100450,809,
120.689925,23.100462,814,
120.689932,23.100474,820,
120.689938,23.100486,826,
120.689943,23.100497,832,
120.689949,23.100509,839,
120.689954,23.100520,845,
120.689959,23.100532,851,
120.689964,23.100543,857,
120.689969,23.100554,863,
120.689973,23.100565,869,
120.689978,23.100576,876,
120.689982,23.100587,882,
120.689986,23.100598,888,
120.689991,23.100609,895,
120.689995,23.100619,901,
120.689999,23.100629,907,
120.690003,23.100639,913,
120.690008,23.100649,919,
120.690012,23.100659,925,
120.690017,23.100669,930,
120.690022,23.100679,935,
120.690027,23.100689,940,
120.690032,23.100698,945,
120.690036,23.100707,950,
120.690041,23.100716,956,
120.690046,23.100724,962,
120.690051,23.100733,969,
120.690057,23.100742,976,
120.690061,23.100750,982,
120.690066,23.100758,988,
120.690071,23.100766,993,
120.690075,23.100774,998,
120.690080,23.100782,1003,
120.690084,23.100789,1008,
120.690087,23.100796,1013,
120.690091,23.100804,1019,
120.690094,23.100811,1024,
120.690097,23.100819,1030,
120.690100,23.100826,1035,
120.690102,23.100833,1040,
120.690104,23.100840,1046,
120.690106,23.100847,1051,
120.690108,23.100854,1057,
120.690110,23.100860,1063,
120.690111,23.100866,1070,
120.690113,23.100872,1076,
120.690114,23.100878,1081,
120.690115,23.100884,1086,
120.690116,23.100889,1091,
120.690118,23.100894,1097,
120.690119,23.100899,1103,
120.690121,23.100904,1109,
120.690123,23.100908,1116,
120.690123,23.100903,1122,
120.690123,23.100899,1128,
120.690123,23.100894,1134,
120.690123,23.100894,1140,
120.690123,23.100894,1146,
120.690123,23.100890,1152,
120.690123,23.100885,1157,
120.690123,23.100881,1163,
120.690127,23.100883,1168,
120.690132,23.100885,1174,
120.690137,23.100886,1179,
120.690143,23.100888,1185,
120.690148,23.100890,1190,
120.690154,23.100893,1195,
120.690161,23.100895,1201,
120.690168,23.100898,1207,
120.690175,23.100901,1212,
120.690182,23.100904,1217,
120.690190,23.100908,1222,
120.690198,23.100912,1227,
120.690206,23.100917,1232,
120.690214,23.100922,1238,
120.690221,23.100928,1244,
120.690229,23.100934,1250,
120.690238,23.100942,1256,
120.690246,23.100950,1261,
120.690254,23.100958,1266,
120.690262,23.100967,1271,
120.690271,23.100978,1276,
120.690279,23.100988,1282,
120.690287,23.100999,1287,
120.690294,23.101011,1292,
120.690301,23.101023,1296,
120.690309,23.101035,1300,
120.690315,23.101048,1306,
120.690322,23.101062,1312,
120.690328,23.101075,1318,
120.690334,23.101088,1323,
120.690339,23.101102,1327,
120.690344,23.101116,1332,
120.690348,23.101130,1336,
120.690352,23.101144,1342,
120.690356,23.101158,1348,
120.690359,23.101172,1353,
120.690362,23.101186,1358,
120.690365,23.101199,1362,
120.690367,23.101213,1367,
120.690369,23.101225,1372,
120.690370,23.101238,1377,
120.690371,23.101249,1383,
120.690372,23.101261,1388,
120.690373,23.101272,1394,
120.690374,23.101283,1399,
120.690374,23.101293,1405,
120.690375,23.101303,1411,
120.690375,23.101312,1417,
120.690375,23.101320,1422,
120.690376,23.101328,1428,
120.690377,23.101335,1434,
120.690378,23.101342,1439,
120.690379,23.101348,1444,
120.690380,23.101355,1449,
120.690382,23.101360,1454,
120.690384,23.101365,1460,
120.690387,23.101370,1466,
120.690390,23.101374,1471,
120.690393,23.101379,1476,
120.690397,23.101383,1480,
120.690402,23.101387,1485,
120.690407,23.101391,1490,
120.690413,23.101395,1495,
120.690419,23.101399,1500,
120.690426,23.101403,1505,
120.690433,23.101408,1510,
120.690440,23.101412,1515,
120.690449,23.101417,1520,
120.690457,23.101422,1524,
120.690466,23.101427,1529,
120.690475,23.101432,1533,
120.690485,23.101438,1538,
120.690495,23.101444,1544,
120.690505,23.101450,1549,
120.690516,23.101456,1555,
120.690526,23.101463,1560,
120.690536,23.101470,1566,
120.690547,23.101477,1571,
120.690557,23.101484,1576,
120.690567,23.101491,1582,
120.690577,23.101498,1587,
120.690587,23.101505,1592,
120.690597,23.101513,1598,
120.690607,23.101520,1604,
120.690617,23.101527,1610,
120.690626,23.101534,1616,
120.690635,23.101541,1623,
120.690643,23.101547,1628,
120.690652,23.101554,1634,
120.690659,23.101559,1640,
120.690667,23.101565,1646,
120.690674,23.101570,1651,
120.690681,23.101575,1657,
120.690687,23.101579,1664,
120.690693,23.101582,1670,
120.690699,23.101585,1676,
120.690704,23.101588,1682,
120.690710,23.101590,1688,
120.690714,23.101592,1694,
120.690714,23.101587,1700,
120.690714,23.101587,1706,
120.690714,23.101587,1711,
120.690714,23.101587,1717,
120.690714,23.101587,1723,
120.690714,23.101587,1729,
120.690714,23.101587,1735,
120.690714,23.101587,1741,
120.690714,23.101587,1747,
120.690714,23.101587,1753,
120.690714,23.101587,1759,
120.690714,23.101587,1765,
120.690714,23.101587,1770,
120.690714,23.101587,1777,
120.690714,23.101587,1783,
120.690714,23.101582,1790,
120.690714,23.101578,1797,
120.690714,23.101573,1803,
120.690714,23.101569,1809,
120.690714,23.101564,1815,
120.690714,23.101564,1821,
120.690714,23.101564,1827,
120.690714,23.101564,1833,
120.690714,23.101564,1839,
120.690714,23.101564,1844,
120.690714,23.101564,1851,
120.690714,23.101564,1858,
120.690714,23.101564,1864,
120.690714,23.101564,1870,
120.690714,23.101564,1875,
120.690714,23.101564,1881,
120.690714,23.101564,1887,
120.690714,23.101564,1893,
120.690714,23.101564,1899,
120.690714,23.101564,1905,
120.690714,23.101564,1911,
120.690714,23.101564,1917,
120.690714,23.101564,1922,
120.690714,23.101564,1928,
120.690714,23.101564,1933,
120.690714,23.101564,1939,
120.690714,23.101564,1945,
120.690714,23.101564,1951,
120.690714,23.101564,1956,
120.690714,23.101564,1962,
120.690714,23.101564,1967,
120.690714,23.101564,1972,
120.690714,23.101564,1977,
120.690714,23.101564,1982,
120.690714,23.101564,1988,
120.690714,23.101564,1994,
120.690714,23.101564,2000,
120.690714,23.101564,2006,
120.690714,23.101564,2011,
120.690714,23.101560,2016,
120.690714,23.101555,2021,
120.690714,23.101551,2025,
120.690714,23.101546,2031,
120.690714,23.101542,2036,
120.690714,23.101537,2042,
120.690714,23.101533,2048,
120.690714,23.101528,2054,
120.690714,23.101524,2059,
120.690714,23.101519,2064,
120.690714,23.101515,2069,
120.690714,23.101515,2075,
120.690714,23.101515,2080,
120.690714,23.101515,2085,
120.690714,23.101515,2089,
120.690714,23.101515,2094,
120.690714,23.101515,2099,
120.690714,23.101515,2104,
120.690714,23.101515,2110,
120.690714,23.101515,2116,
120.690714,23.101515,2122,
120.690714,23.101515,2128,
120.690714,23.101515,2134,
120.690714,23.101515,2139,
120.690714,23.101515,2145,
120.690714,23.101515,2151,
120.690714,23.101515,2157,
120.690714,23.101515,2164,
120.690714,23.101515,2170,
120.690714,23.101515,2176,
120.690714,23.101510,2182,
120.690711,23.101507,2189,
120.690708,23.101502,2195,
120.690705,23.101498,2202,
120.690702,23.101492,2207,
120.690699,23.101486,2212,
120.690697,23.101479,2217,
120.690695,23.101472,2223,
120.690693,23.101464,2228,
120.690692,23.101455,2233,
120.690691,23.101445,2239,
120.690692,23.101436,2245,
120.690693,23.101425,2250,
120.690695,23.101413,2256,
120.690697,23.101401,2261,
120.690701,23.101388,2266,
120.690705,23.101374,2272,
120.690711,23.101359,2277,
120.690717,23.101344,2283,
120.690724,23.101328,2288,
120.690733,23.101312,2294,
120.690742,23.101295,2299,
120.690752,23.101277,2305,
120.690763,23.101259,2311,
120.690774,23.101240,2318,
120.690787,23.101221,2325,
120.690800,23.101202,2332,
120.690814,23.101182,2339,
120.690829,23.101162,2344,
120.690844,23.101142,2350,
120.690860,23.101122,2355,
120.690877,23.101101,2361,
120.690894,23.101080,2368,
120.690913,23.101059,2374,
120.690932,23.101038,2380,
120.690951,23.101018,2385,
120.690971,23.100997,2390,
120.690992,23.100976,2395,
120.691013,23.100956,2400,
120.691035,23.100936,2405,
120.691058,23.100916,2410,
120.691081,23.100896,2416,
120.691105,23.100876,2421,
120.691129,23.100857,2427,
120.691154,23.100837,2433,
120.691179,23.100819,2439,
120.691205,23.100800,2445,
120.691232,23.100781,2451,
120.691259,23.100763,2456,
120.691287,23.100745,2461,
120.691315,23.100727,2467,
120.691344,23.100710,2473,
120.691373,23.100693,2480,
120.691403,23.100675,2486,
120.691433,23.100658,2491,
120.691463,23.100641,2496,
120.691494,23.100624,2500,
120.691525,23.100607,2505,
120.691557,23.100590,2510,
120.691589,23.100573,2515,
120.691621,23.100556,2521,
120.691653,23.100539,2527,
120.691685,23.100521,2533,
120.691718,23.100503,2538,
120.691751,23.100485,2543,
120.691784,23.100466,2547,
120.691818,23.100448,2552,
120.691851,23.100429,2557,
120.691885,23.100409,2562,
120.691919,23.100390,2569,
120.691954,23.100370,2576,
120.691989,23.100350,2583,
120.692025,23.100329,2589,
120.692060,23.100308,2595,
120.692097,23.100288,2602,
120.692134,23.100267,2608,
120.692172,23.100247,2614,
120.692210,23.100225,2620,
120.692249,23.100204,2626,
120.692289,23.100183,2632,
120.692330,23.100163,2638,
120.692371,23.100142,2644,
120.692412,23.100121,2650,
120.692454,23.100100,2656,
120.692496,23.100079,2661,
120.692539,23.100059,2667,
120.692583,23.100038,2674,
120.692626,23.100018,2680,
120.692671,23.099998,2687,
120.692716,23.099978,2693,
120.692761,23.099957,2699,
120.692807,23.099937,2704,
120.692852,23.099916,2709,
120.692899,23.099896,2715,
120.692946,23.099876,2721,
120.692993,23.099855,2727,
120.693041,23.099835,2734,
120.693089,23.099814,2740,
120.693137,23.099793,2745,
120.693185,23.099771,2751,
120.693233,23.099749,2757,
120.693283,23.099727,2763,
120.693332,23.099705,2768,
120.693382,23.099682,2774,
120.693431,23.099658,2780,
120.693482,23.099634,2785,
120.693533,23.099610,2791,
120.693586,23.099586,2796,
120.693637,23.099560,2800,
120.693690,23.099534,2805,
120.693744,23.099508,2810,
120.693798,23.099481,2816,
120.693853,23.099454,2821,
120.693909,23.099427,2826,
120.693965,23.099400,2832,
120.694022,23.099372,2836,
120.694079,23.099342,2841,
120.694137,23.099313,2847,
120.694196,23.099283,2853,
120.694255,23.099253,2858,
120.694315,23.099222,2863,
120.694375,23.099191,2868,
120.694437,23.099161,2872,
120.694499,23.099130,2876,
120.694561,23.099100,2880,
120.694623,23.099069,2884,
120.694686,23.099038,2888,
120.694750,23.099007,2892,
120.694813,23.098976,2897,
120.694876,23.098945,2902,
120.694939,23.098914,2907,
120.695002,23.098883,2912,
120.695065,23.098852,2916,
120.695128,23.098822,2921,
120.695191,23.098791,2926,
120.695254,23.098760,2931,
120.695316,23.098729,2937,
120.695379,23.098699,2943,
120.695441,23.098668,2949,
120.695502,23.098638,2955,
120.695563,23.098608,2961,
120.695625,23.098578,2967,
120.695686,23.098548,2973,
120.695747,23.098518,2979,
120.695807,23.098488,2985,
120.695868,23.098459,2992,
120.695927,23.098429,2999,
120.695987,23.098400,3005,
120.696046,23.098371,3011,
120.696106,23.098342,3017,
120.696165,23.098313,3022,
120.696223,23.098283,3027,
120.696281,23.098253,3033,
120.696339,23.098223,3038,
120.696398,23.098194,3044,
120.696456,23.098164,3049,
120.696514,23.098134,3055,
120.696572,23.098104,3061,
120.696630,23.098074,3067,
120.696688,23.098043,3073,
120.696745,23.098012,3079,
120.696803,23.097982,3085,
120.696860,23.097951,3090,
120.696918,23.097920,3096,
120.696975,23.097889,3102,
120.697032,23.097857,3108,
120.697089,23.097825,3115,
120.697147,23.097793,3120,
120.697204,23.097760,3126,
120.697262,23.097727,3132,
120.697318,23.097693,3138,
120.697375,23.097659,3144,
120.697432,23.097625,3150,
120.697489,23.097590,3156,
120.697546,23.097554,3161,
120.697602,23.097518,3167,
120.697659,23.097481,3172,
120.697715,23.097443,3178,
120.697771,23.097406,3183,
120.697828,23.097367,3188,
120.697884,23.097327,3194,
120.697940,23.097287,3199,
120.697996,23.097246,3205,
120.698052,23.097205,3210,
120.698108,23.097163,3217,
120.698164,23.097121,3223,
120.698221,23.097077,3228,
120.698277,23.097034,3233,
120.698334,23.096990,3238,
120.698391,23.096945,3243,
120.698448,23.096901,3247,
120.698506,23.096857,3252,
120.698563,23.096812,3258,
120.698622,23.096767,3263,
120.698680,23.096721,3268,
120.698739,23.096676,3273,
120.698797,23.096631,3278,
120.698856,23.096586,3283,
120.698915,23.096540,3289,
120.698975,23.096495,3295,
120.699035,23.096450,3301,
120.699095,23.096405,3307,
120.699155,23.096360,3313,
120.699215,23.096315,3319,
120.699276,23.096271,3325,
120.699337,23.096227,3330,
120.699398,23.096183,3336,
120.699460,23.096139,3341,
120.699521,23.096094,3346,
120.699584,23.096051,3351,
120.699646,23.096008,3356,
120.699709,23.095964,3362,
120.699771,23.095921,3368,
120.699834,23.095877,3374,
120.699897,23.095834,3380,
120.699959,23.095790,3386,
120.700022,23.095747,3392,
120.700084,23.095703,3398,
120.700146,23.095660,3403,
120.700208,23.095617,3409,
120.700269,23.095574,3413,
120.700331,23.095531,3418,
120.700393,23.095489,3423,
120.700455,23.095446,3429,
120.700516,23.095403,3435,
120.700578,23.095360,3441,
120.700640,23.095318,3447,
120.700702,23.095277,3453,
120.700763,23.095235,3458,
120.700825,23.095194,3464,
120.700887,23.095153,3469,
120.700948,23.095112,3474,
120.701009,23.095071,3480,
120.701070,23.095030,3486,
120.701131,23.094989,3491,
120.701192,23.094948,3497,
120.701252,23.094908,3502,
120.701312,23.094868,3508,
120.701372,23.094827,3513,
120.701432,23.094787,3519,
120.701493,23.094748,3525,
120.701554,23.094708,3531,
120.701615,23.094669,3538,
120.701676,23.094630,3544,
120.701737,23.094590,3550,
120.701798,23.094551,3557,
120.701859,23.094511,3563,
120.701920,23.094472,3570,
120.701981,23.094434,3575,
120.702044,23.094395,3581,
120.702106,23.094356,3586,
120.702169,23.094317,3591,
120.702231,23.094278,3595,
120.702294,23.094239,3600,
120.702357,23.094201,3605,
120.702419,23.094164,3610,
120.702482,23.094127,3615,
120.702544,23.094089,3620,
120.702607,23.094053,3625,
120.702670,23.094017,3630,
120.702733,23.093980,3636,
120.702795,23.093944,3641,
120.702858,23.093908,3647,
120.702921,23.093873,3652,
120.702983,23.093839,3658,
120.703046,23.093804,3664,
120.703108,23.093770,3670,
120.703170,23.093735,3676,
120.703232,23.093701,3683,
120.703294,23.093668,3689,
120.703357,23.093634,3694,
120.703420,23.093601,3700,
120.703483,23.093567,3706,
120.703545,23.093534,3711,
120.703608,23.093500,3716,
120.703671,23.093467,3722,
120.703733,23.093434,3728,
120.703797,23.093400,3735,
120.703861,23.093366,3741,
120.703925,23.093332,3746,
120.703989,23.093297,3751,
120.704053,23.093262,3756,
120.704118,23.093226,3762,
120.704182,23.093190,3768,
120.704248,23.093154,3774,
120.704313,23.093118,3780,
120.704379,23.093081,3786,
120.704446,23.093044,3791,
120.704513,23.093007,3797,
120.704580,23.092970,3802,
120.704647,23.092933,3807,
120.704715,23.092895,3812,
120.704783,23.092857,3819,
120.704851,23.092820,3825,
120.704919,23.092782,3831,
120.704987,23.092744,3836,
120.705056,23.092707,3841,
120.705126,23.092670,3846,
120.705195,23.092633,3850,
120.705265,23.092596,3854,
120.705334,23.092559,3858,
120.705404,23.092523,3863,
120.705474,23.092488,3867,
120.705543,23.092452,3873,
120.705612,23.092417,3878,
120.705682,23.092382,3883,
120.705752,23.092348,3888,
120.705822,23.092314,3894,
120.705893,23.092281,3899,
120.705963,23.092248,3905,
120.706032,23.092215,3911,
120.706103,23.092183,3917,
120.706173,23.092152,3922,
120.706243,23.092120,3927,
120.706313,23.092090,3932,
120.706383,23.092060,3936,
120.706453,23.092030,3940,
120.706523,23.092001,3945,
120.706592,23.091973,3950,
120.706662,23.091944,3955,
120.706732,23.091916,3960,
120.706802,23.091889,3965,
120.706871,23.091862,3971,
120.706940,23.091835,3976,
120.707010,23.091808,3982,
120.707079,23.091781,3987,
120.707149,23.091755,3992,
120.707219,23.091729,3997,
120.707289,23.091702,4001,
120.707359,23.091676,4006,
120.707428,23.091650,4011,
120.707498,23.091624,4017,
120.707568,23.091598,4023,
120.707638,23.091572,4029,
120.707708,23.091546,4035,
120.707778,23.091520,4040,
120.707848,23.091494,4046,
120.707918,23.091468,4051,
120.707989,23.091441,4057,
120.708060,23.091416,4063,
120.708132,23.091391,4069,
120.708204,23.091365,4075,
120.708276,23.091340,4081,
120.708348,23.091314,4086,
120.708420,23.091289,4090,
120.708493,23.091263,4096,
120.708566,23.091237,4102,
120.708639,23.091211,4108,
120.708712,23.091185,4114,
120.708785,23.091159,4119,
120.708858,23.091134,4125,
120.708931,23.091108,4130,
120.709004,23.091082,4136,
120.709077,23.091056,4141,
120.709150,23.091030,4147,
120.709223,23.091004,4152,
120.709296,23.090978,4157,
120.709370,23.090952,4163,
120.709443,23.090926,4168,
120.709515,23.090901,4173,
120.709587,23.090875,4178,
120.709659,23.090850,4184,
120.709731,23.090824,4190,
120.709804,23.090799,4196,
120.709875,23.090775,4202,
120.709947,23.090750,4209,
120.710019,23.090726,4216,
120.710090,23.090702,4223,
120.710163,23.090679,4229,
120.710234,23.090657,4234,
120.710305,23.090635,4238,
120.710377,23.090614,4243,
120.710448,23.090594,4248,
120.710519,23.090574,4253,
120.710591,23.090555,4258,
120.710663,23.090537,4263,
120.710734,23.090519,4267,
120.710805,23.090503,4271,
120.710876,23.090488,4275,
120.710948,23.090472,4279,
120.711019,23.090459,4283,
120.711090,23.090446,4286,
120.711161,23.090433,4290,
120.711232,23.090421,4295,
120.711303,23.090410,4299,
120.711373,23.090400,4304,
120.711444,23.090389,4308,
120.711513,23.090379,4312,
120.711583,23.090370,4318,
120.711653,23.090361,4323,
120.711722,23.090352,4329,
120.711790,23.090343,4334,
120.711859,23.090334,4340,
120.711927,23.090326,4345,
120.711995,23.090316,4350,
120.712062,23.090306,4355,
120.712129,23.090296,4360,
120.712196,23.090285,4365,
120.712262,23.090274,4370,
120.712327,23.090263,4376,
120.712393,23.090251,4381,
120.712458,23.090238,4387,
120.712523,23.090225,4393,
120.712588,23.090212,4398,
120.712653,23.090198,4403,
120.712717,23.090183,4408,
120.712781,23.090168,4414,
120.712844,23.090153,4420,
120.712907,23.090137,4425,
120.712971,23.090120,4431,
120.713035,23.090103,4437,
120.713099,23.090086,4442,
120.713163,23.090068,4447,
120.713227,23.090050,4452,
120.713290,23.090032,4457,
120.713354,23.090014,4461,
120.713417,23.089996,4467,
120.713481,23.089979,4472,
120.713546,23.089960,4477,
120.713610,23.089942,4482,
120.713675,23.089924,4487,
120.713739,23.089906,4492,
120.713804,23.089888,4497,
120.713869,23.089871,4503,
120.713935,23.089854,4509,
120.714001,23.089836,4515,
120.714067,23.089820,4521,
120.714133,23.089804,4526,
