MEMBER 1
press,hght,temp,dwpt,wdir,wspd
962.700000,456.000000,22.800000,16.000000,351.000000,2.600000
953.500000,541.000000,23.800000,13.500000,55.000000,4.800000
943.500000,633.000000,23.400000,12.600000,45.000000,7.000000
933.300000,727.000000,22.900000,12.000000,40.000000,7.400000
921.900000,835.000000,24.400000,10.400000,53.000000,4.000000
910.600000,942.000000,23.400000,10.400000,66.000000,2.200000
898.000000,1065.000000,22.300000,10.500000,41.000000,1.400000
886.000000,1181.000000,21.700000,12.500000,360.000000,0.500000
874.300000,1297.000000,21.100000,12.800000,0.000000,0.000000
862.700000,1412.000000,20.600000,11.700000,169.000000,1.100000
851.600000,1524.000000,19.600000,11.400000,179.000000,2.800000
840.600000,1636.000000,19.100000,10.500000,180.000000,3.800000
830.000000,1745.000000,18.500000,9.600000,176.000000,3.200000
821.800000,1830.000000,18.100000,7.900000,170.000000,3.500000
811.400000,1939.000000,17.300000,10.900000,175.000000,3.800000
801.400000,2045.000000,16.900000,10.300000,177.000000,3.300000
791.200000,2155.000000,16.300000,8.800000,188.000000,3.100000
783.000000,2243.000000,15.400000,10.400000,191.000000,3.900000
775.600000,2323.000000,14.900000,10.900000,187.000000,4.600000
766.200000,2427.000000,14.400000,9.900000,186.000000,5.300000
756.100000,2539.000000,14.100000,8.700000,197.000000,5.600000
746.200000,2650.000000,13.600000,8.100000,201.000000,6.400000
738.000000,2744.000000,13.400000,6.500000,203.000000,5.600000
729.800000,2839.000000,13.200000,2.800000,217.000000,4.700000
719.900000,2953.000000,12.900000,0.100000,216.000000,4.700000
710.100000,3068.000000,12.300000,-2.300000,225.000000,5.300000
702.200000,3161.000000,11.600000,0.700000,232.000000,5.400000
693.800000,3263.000000,11.500000,-2.700000,233.000000,5.900000
686.700000,3349.000000,11.200000,-5.100000,231.000000,5.600000
679.100000,3441.000000,10.600000,-4.200000,231.000000,5.600000
672.200000,3526.000000,10.200000,-5.300000,227.000000,5.500000
665.000000,3615.000000,9.500000,-1.400000,221.000000,5.900000
658.100000,3702.000000,8.700000,-0.900000,220.000000,5.900000
650.500000,3798.000000,8.300000,-0.800000,220.000000,5.800000
643.600000,3887.000000,7.600000,1.500000,221.000000,5.800000
636.600000,3976.000000,7.000000,0.200000,223.000000,6.400000
629.300000,4071.000000,6.600000,-0.800000,226.000000,5.800000
622.600000,4159.000000,6.000000,-2.700000,232.000000,4.600000
616.000000,4246.000000,5.500000,-3.700000,247.000000,4.200000
607.900000,4354.000000,4.500000,-4.200000,251.000000,4.200000
599.900000,4463.000000,3.900000,-4.700000,254.000000,4.900000
592.000000,4569.000000,3.000000,-4.300000,253.000000,5.100000
585.400000,4660.000000,2.400000,-4.700000,250.000000,5.100000
579.200000,4747.000000,2.000000,-7.200000,248.000000,5.100000
572.900000,4835.000000,1.400000,-7.200000,243.000000,5.600000
564.400000,4955.000000,0.700000,-7.100000,244.000000,6.100000
557.900000,5048.000000,0.400000,-8.300000,241.000000,6.600000
551.600000,5140.000000,-0.200000,-8.600000,239.000000,6.700000
545.100000,5234.000000,-0.700000,-12.700000,245.000000,5.800000
538.800000,5327.000000,-1.300000,-16.400000,250.000000,4.800000
531.900000,5429.000000,-2.100000,-19.300000,240.000000,3.700000
525.600000,5525.000000,-2.300000,-22.100000,242.000000,3.500000
519.200000,5621.000000,-3.200000,-12.400000,238.000000,3.500000
513.100000,5714.000000,-4.100000,-9.700000,247.000000,3.100000
506.500000,5817.000000,-4.800000,-8.100000,264.000000,1.800000
500.300000,5913.000000,-5.600000,-7.200000,218.000000,1.300000
494.600000,6004.000000,-5.900000,-8.800000,194.000000,2.600000
488.400000,6102.000000,-6.400000,-11.700000,190.000000,3.600000
482.600000,6196.000000,-6.600000,-13.100000,193.000000,3.900000
477.200000,6284.000000,-6.900000,-15.300000,188.000000,3.000000
471.800000,6373.000000,-7.300000,-12.300000,173.000000,2.600000
466.600000,6458.000000,-7.600000,-16.000000,181.000000,2.400000
461.700000,6541.000000,-7.800000,-20.100000,176.000000,2.200000
456.500000,6630.000000,-8.500000,-15.400000,169.000000,1.700000
451.200000,6720.000000,-9.200000,-15.400000,163.000000,1.400000
446.000000,6809.000000,-9.800000,-13.100000,133.000000,1.600000
440.900000,6898.000000,-10.500000,-13.300000,116.000000,1.800000
435.800000,6988.000000,-10.600000,-14.200000,111.000000,0.700000
430.900000,7075.000000,-10.700000,-15.100000,137.000000,1.100000
425.800000,7167.000000,-10.600000,-17.300000,150.000000,2.200000
420.500000,7262.000000,-11.000000,-19.500000,145.000000,2.900000
415.400000,7357.000000,-11.600000,-20.100000,145.000000,3.000000
410.200000,7453.000000,-12.200000,-20.600000,134.000000,3.500000
404.800000,7554.000000,-12.700000,-22.200000,122.000000,3.900000
399.300000,7657.000000,-13.500000,-22.100000,106.000000,3.600000
394.300000,7753.000000,-14.300000,-22.600000,103.000000,2.800000
389.400000,7848.000000,-15.100000,-23.500000,87.000000,2.600000
384.200000,7950.000000,-15.600000,-27.600000,62.000000,4.200000
377.200000,8090.000000,-16.500000,-29.900000,54.000000,5.700000
372.600000,8181.000000,-17.300000,-30.300000,49.000000,6.900000
367.900000,8276.000000,-18.300000,-30.500000,46.000000,8.000000
363.200000,8372.000000,-19.000000,-31.100000,40.000000,9.200000
358.400000,8470.000000,-19.700000,-33.200000,39.000000,9.700000
353.600000,8571.000000,-20.600000,-33.700000,40.000000,9.600000
347.800000,8692.000000,-21.600000,-34.600000,39.000000,9.400000
343.300000,8789.000000,-22.400000,-36.000000,39.000000,9.000000
338.600000,8889.000000,-23.200000,-37.600000,31.000000,8.500000
334.100000,8987.000000,-23.700000,-37.200000,24.000000,8.500000
330.000000,9078.000000,-24.500000,-28.600000,16.000000,8.700000
325.700000,9172.000000,-24.900000,-34.300000,15.000000,7.400000
321.100000,9275.000000,-25.600000,-41.400000,20.000000,5.900000
316.900000,9371.000000,-26.300000,-46.900000,19.000000,4.900000
312.600000,9470.000000,-26.800000,-43.400000,20.000000,3.200000
307.100000,9597.000000,-27.500000,-41.000000,45.000000,3.300000
302.600000,9704.000000,-28.300000,-44.200000,52.000000,3.000000
298.700000,9796.000000,-29.100000,-43.200000,30.000000,2.400000
295.000000,9885.000000,-29.500000,-50.100000,25.000000,3.100000
291.500000,9970.000000,-30.200000,-51.500000,26.000000,3.100000
288.000000,10056.000000,-31.000000,-52.700000,29.000000,3.300000
284.600000,10141.000000,-31.800000,-56.000000,29.000000,3.700000
280.900000,10232.000000,-32.700000,-62.500000,29.000000,4.400000
277.400000,10320.000000,-33.300000,-65.400000,38.000000,4.800000
274.000000,10407.000000,-33.900000,-60.500000,51.000000,4.800000
270.500000,10499.000000,-34.700000,-58.100000,56.000000,4.900000
266.900000,10592.000000,-35.500000,-54.900000,65.000000,5.000000
263.300000,10685.000000,-36.400000,-54.400000,68.000000,4.700000
259.700000,10779.000000,-37.100000,-56.200000,73.000000,4.500000
256.300000,10872.000000,-37.900000,-52.300000,73.000000,5.000000
252.800000,10967.000000,-38.700000,-51.600000,78.000000,5.600000
249.300000,11062.000000,-39.500000,-50.700000,78.000000,6.500000
245.700000,11161.000000,-40.400000,-49.200000,71.000000,6.900000
242.100000,11262.000000,-41.300000,-49.200000,59.000000,7.000000
238.500000,11363.000000,-42.100000,-48.500000,42.000000,8.000000
233.900000,11493.000000,-43.100000,-48.600000,28.000000,8.700000
230.100000,11605.000000,-43.900000,-49.400000,21.000000,9.900000
226.400000,11713.000000,-44.800000,-49.400000,18.000000,11.400000
222.800000,11820.000000,-45.700000,-50.100000,17.000000,12.900000
219.300000,11924.000000,-46.700000,-51.200000,17.000000,14.300000
216.100000,12021.000000,-47.300000,-52.400000,19.000000,15.000000
213.000000,12116.000000,-48.200000,-54.300000,20.000000,15.000000
210.000000,12210.000000,-49.000000,-55.200000,23.000000,15.300000
206.700000,12316.000000,-49.800000,-56.500000,21.000000,17.600000
203.700000,12412.000000,-50.300000,-59.100000,18.000000,18.600000
200.700000,12506.000000,-50.800000,-59.500000,14.000000,19.200000
197.700000,12604.000000,-50.900000,-62.800000,14.000000,21.100000
194.800000,12701.000000,-51.500000,-62.600000,16.000000,22.700000
191.800000,12803.000000,-52.400000,-60.900000,17.000000,23.600000
188.800000,12904.000000,-53.400000,-59.000000,18.000000,24.100000
185.900000,13002.000000,-54.200000,-58.700000,19.000000,24.000000
183.000000,13102.000000,-55.100000,-59.600000,20.000000,24.500000
180.100000,13204.000000,-56.000000,-60.400000,20.000000,24.800000
177.400000,13303.000000,-56.900000,-62.700000,21.000000,24.800000
174.700000,13399.000000,-57.700000,-64.300000,23.000000,23.700000
171.900000,13501.000000,-58.400000,-64.400000,26.000000,23.000000
169.300000,13595.000000,-59.200000,-66.000000,29.000000,23.400000
166.800000,13690.000000,-59.800000,-66.700000,31.000000,23.600000
164.300000,13784.000000,-60.600000,-67.000000,32.000000,23.000000
161.700000,13881.000000,-61.100000,-68.300000,32.000000,22.000000
159.100000,13981.000000,-61.900000,-69.400000,32.000000,21.200000
156.500000,14085.000000,-63.000000,-70.500000,33.000000,20.200000
153.900000,14188.000000,-63.800000,-73.700000,32.000000,19.700000
151.400000,14289.000000,-64.600000,-73.600000,30.000000,20.100000
148.900000,14388.000000,-65.300000,-74.000000,30.000000,20.700000
146.500000,14489.000000,-65.900000,-75.000000,29.000000,21.100000
144.100000,14588.000000,-66.100000,-74.100000,30.000000,20.100000
141.600000,14691.000000,-67.000000,-74.800000,32.000000,18.700000
139.100000,14798.000000,-67.900000,-75.500000,35.000000,17.800000
136.700000,14905.000000,-68.900000,-75.400000,39.000000,17.100000
134.400000,15007.000000,-69.800000,-75.400000,40.000000,16.800000
132.100000,15111.000000,-70.800000,-75.800000,40.000000,16.500000
129.700000,15215.000000,-71.700000,-76.000000,40.000000,16.500000
127.400000,15322.000000,-72.500000,-76.200000,43.000000,16.700000
125.200000,15426.000000,-73.000000,-77.100000,44.000000,16.500000
122.900000,15533.000000,-74.100000,-78.800000,44.000000,17.000000
120.700000,15637.000000,-74.600000,-79.900000,44.000000,18.100000
118.500000,15746.000000,-75.300000,-81.200000,42.000000,17.700000
116.300000,15852.000000,-73.900000,-80.600000,37.000000,17.200000
114.300000,15956.000000,-74.400000,-81.400000,38.000000,16.800000
112.200000,16063.000000,-75.200000,-81.800000,38.000000,17.100000
110.100000,16170.000000,-75.900000,-82.200000,39.000000,17.600000
108.100000,16275.000000,-76.100000,-82.500000,42.000000,18.000000
106.100000,16383.000000,-76.500000,-83.400000,47.000000,18.000000
104.200000,16490.000000,-77.400000,-85.000000,50.000000,16.800000
102.200000,16602.000000,-77.600000,-86.200000,54.000000,14.000000
100.200000,16714.000000,-77.400000,-86.800000,62.000000,12.300000
98.200000,16828.000000,-78.100000,-87.600000,66.000000,12.300000
96.200000,16945.000000,-79.300000,-88.600000,67.000000,11.900000
94.300000,17057.000000,-80.000000,-89.000000,62.000000,12.300000
92.400000,17172.000000,-80.500000,-89.300000,54.000000,13.100000
90.700000,17281.000000,-79.900000,-89.000000,58.000000,14.500000
88.900000,17390.000000,-78.800000,-88.200000,64.000000,13.900000
87.300000,17497.000000,-78.800000,-88.800000,53.000000,12.300000
85.700000,17603.000000,-79.000000,-89.800000,46.000000,13.300000
84.000000,17713.000000,-78.500000,-89.600000,52.000000,13.600000
82.300000,17830.000000,-79.300000,-90.000000,54.000000,11.600000
80.800000,17935.000000,-80.100000,-90.600000,48.000000,11.200000
79.300000,18043.000000,-80.100000,-90.500000,45.000000,13.500000
77.800000,18151.000000,-80.100000,-90.400000,45.000000,16.000000
76.300000,18259.000000,-80.000000,-90.700000,41.000000,16.700000
74.800000,18368.000000,-79.700000,-90.900000,42.000000,17.000000
73.300000,18484.000000,-78.400000,-90.100000,52.000000,16.200000
71.900000,18596.000000,-79.300000,-91.200000,60.000000,15.000000
70.500000,18707.000000,-79.200000,-91.500000,64.000000,14.600000
69.200000,18816.000000,-79.300000,-92.000000,73.000000,12.500000
67.900000,18923.000000,-78.600000,-91.700000,78.000000,10.100000
66.600000,19032.000000,-79.000000,-93.100000,67.000000,10.600000
65.400000,19136.000000,-76.000000,-91.100000,64.000000,13.200000
64.200000,19242.000000,-74.300000,-90.100000,64.000000,14.100000
63.000000,19349.000000,-74.300000,-91.900000,65.000000,13.500000
61.900000,19455.000000,-74.200000,-93.500000,63.000000,13.700000
60.800000,19563.000000,-72.600000,-92.900000,52.000000,15.200000
59.600000,19675.000000,-71.500000,-92.900000,51.000000,16.400000
58.500000,19783.000000,-69.800000,-94.100000,62.000000,18.000000
57.500000,19896.000000,-67.500000,-91.200000,64.000000,19.500000
56.400000,20012.000000,-67.600000,-93.200000,68.000000,18.900000
55.300000,20126.000000,-67.700000,-94.700000,73.000000,17.100000
54.200000,20243.000000,-67.000000,-93.600000,81.000000,14.700000
