MEMBER 0
press,hght,temp,dwpt,wdir,wspd
961.300000,455.000000,23.800000,20.800000,0.000000,0.000000
949.400000,563.000000,23.000000,19.500000,107.000000,0.500000
939.300000,657.000000,23.600000,18.300000,105.000000,1.900000
929.600000,748.000000,23.000000,17.800000,66.000000,1.400000
920.700000,832.000000,22.600000,17.400000,355.000000,0.900000
910.100000,933.000000,22.200000,17.400000,0.000000,0.000000
901.100000,1020.000000,21.500000,17.200000,200.000000,0.700000
893.400000,1094.000000,21.200000,17.100000,259.000000,0.600000
886.000000,1167.000000,20.800000,17.400000,220.000000,1.000000
878.300000,1242.000000,20.400000,17.200000,227.000000,1.800000
871.000000,1314.000000,19.900000,16.900000,243.000000,2.600000
863.800000,1386.000000,19.600000,14.500000,242.000000,2.700000
856.500000,1459.000000,19.000000,15.400000,233.000000,3.000000
849.400000,1532.000000,18.800000,14.200000,230.000000,2.900000
842.000000,1607.000000,18.500000,14.700000,227.000000,2.700000
834.900000,1680.000000,18.100000,14.400000,223.000000,2.800000
827.500000,1755.000000,17.600000,13.900000,219.000000,2.500000
819.800000,1835.000000,17.000000,13.000000,232.000000,2.700000
812.700000,1910.000000,16.500000,12.100000,237.000000,3.000000
805.600000,1985.000000,16.400000,11.300000,239.000000,2.700000
798.300000,2062.000000,16.100000,10.800000,241.000000,2.300000
791.000000,2140.000000,15.700000,9.500000,250.000000,2.500000
783.900000,2217.000000,15.700000,6.300000,245.000000,2.500000
777.100000,2291.000000,15.000000,10.700000,237.000000,1.600000
770.300000,2366.000000,14.600000,10.900000,245.000000,1.400000
763.200000,2444.000000,14.300000,8.300000,246.000000,1.300000
755.600000,2529.000000,13.500000,8.400000,270.000000,2.000000
747.200000,2623.000000,13.000000,6.000000,270.000000,3.500000
740.900000,2694.000000,13.000000,4.900000,265.000000,3.900000
734.300000,2770.000000,12.600000,4.100000,268.000000,3.800000
727.800000,2845.000000,12.200000,3.200000,267.000000,3.700000
721.400000,2918.000000,11.500000,7.100000,262.000000,4.200000
714.800000,2995.000000,10.800000,9.200000,260.000000,4.600000
708.500000,3069.000000,10.500000,8.500000,257.000000,5.400000
702.200000,3144.000000,10.300000,6.800000,255.000000,5.600000
695.900000,3219.000000,10.100000,6.900000,249.000000,6.000000
689.600000,3295.000000,9.600000,6.800000,246.000000,6.000000
683.400000,3370.000000,9.100000,6.400000,253.000000,5.200000
677.300000,3444.000000,8.800000,5.100000,259.000000,4.900000
671.200000,3520.000000,8.200000,4.500000,260.000000,4.900000
665.300000,3593.000000,7.800000,4.500000,259.000000,4.600000
659.200000,3668.000000,7.400000,4.000000,271.000000,5.100000
653.500000,3740.000000,7.000000,3.600000,277.000000,6.000000
647.500000,3816.000000,6.500000,3.800000,278.000000,6.600000
641.700000,3889.000000,6.000000,2.400000,285.000000,6.900000
636.000000,3963.000000,5.800000,1.000000,288.000000,7.100000
629.900000,4041.000000,5.200000,1.700000,285.000000,6.100000
623.800000,4121.000000,4.400000,2.400000,279.000000,5.600000
618.200000,4195.000000,3.800000,2.300000,267.000000,5.600000
612.900000,4265.000000,3.700000,0.900000,262.000000,5.500000
607.300000,4339.000000,3.300000,-0.100000,265.000000,5.500000
602.000000,4411.000000,2.800000,1.400000,261.000000,5.900000
596.700000,4482.000000,2.400000,1.000000,262.000000,6.500000
591.400000,4554.000000,2.100000,0.600000,261.000000,7.000000
586.400000,4623.000000,1.600000,0.000000,264.000000,7.300000
581.200000,4695.000000,1.000000,-2.100000,266.000000,7.100000
576.200000,4765.000000,0.600000,-2.000000,270.000000,7.000000
571.100000,4837.000000,0.000000,-1.100000,273.000000,7.000000
565.900000,4910.000000,-0.400000,-0.800000,277.000000,6.600000
561.000000,4979.000000,-0.500000,-2.600000,280.000000,5.800000
556.100000,5050.000000,-0.700000,-6.400000,270.000000,5.000000
551.000000,5123.000000,-1.200000,-5.000000,268.000000,4.300000
546.000000,5196.000000,-1.300000,-6.300000,279.000000,3.700000
540.800000,5272.000000,-1.600000,-11.500000,286.000000,4.300000
535.500000,5350.000000,-2.300000,-5.600000,286.000000,4.500000
530.100000,5431.000000,-2.800000,-5.100000,288.000000,4.700000
523.900000,5524.000000,-3.400000,-11.300000,288.000000,4.700000
516.600000,5635.000000,-4.300000,-6.000000,284.000000,4.900000
509.900000,5739.000000,-4.900000,-5.800000,289.000000,5.500000
502.300000,5857.000000,-5.400000,-8.100000,291.000000,6.200000
495.200000,5968.000000,-5.900000,-7.200000,288.000000,6.500000
488.800000,6071.000000,-6.100000,-6.100000,277.000000,6.100000
482.000000,6180.000000,-6.500000,-6.500000,267.000000,5.400000
475.500000,6287.000000,-7.000000,-7.000000,261.000000,5.300000
469.000000,6393.000000,-7.600000,-7.600000,266.000000,4.900000
462.000000,6510.000000,-8.300000,-8.400000,255.000000,4.700000
455.300000,6625.000000,-9.000000,-9.300000,249.000000,4.200000
447.700000,6755.000000,-9.900000,-9.900000,238.000000,3.200000
441.500000,6863.000000,-10.600000,-10.600000,238.000000,2.700000
434.800000,6980.000000,-11.200000,-11.200000,251.000000,2.900000
429.500000,7074.000000,-11.500000,-11.800000,270.000000,3.200000
424.300000,7167.000000,-11.800000,-12.300000,287.000000,3.200000
419.400000,7256.000000,-12.200000,-13.100000,301.000000,3.500000
414.700000,7343.000000,-12.600000,-13.200000,310.000000,3.700000
409.900000,7431.000000,-13.200000,-15.100000,312.000000,3.400000
405.500000,7513.000000,-13.400000,-16.100000,309.000000,3.200000
401.200000,7595.000000,-14.000000,-16.100000,312.000000,2.100000
396.900000,7676.000000,-14.500000,-16.800000,293.000000,1.700000
392.600000,7758.000000,-15.000000,-17.500000,283.000000,1.700000
388.500000,7839.000000,-15.500000,-19.000000,280.000000,1.600000
384.500000,7917.000000,-15.900000,-20.100000,285.000000,1.500000
380.500000,7995.000000,-16.400000,-20.500000,300.000000,1.800000
376.600000,8073.000000,-16.800000,-20.000000,303.000000,1.800000
372.600000,8152.000000,-17.300000,-20.400000,306.000000,2.000000
368.900000,8229.000000,-17.900000,-21.300000,311.000000,1.800000
365.200000,8304.000000,-18.300000,-22.100000,313.000000,1.700000
361.300000,8383.000000,-18.800000,-23.700000,309.000000,1.100000
357.300000,8466.000000,-19.200000,-24.800000,0.000000,0.000000
353.400000,8548.000000,-19.800000,-24.400000,82.000000,0.900000
349.500000,8629.000000,-20.400000,-24.500000,88.000000,0.800000
345.800000,8708.000000,-21.000000,-24.800000,108.000000,0.800000
342.100000,8789.000000,-21.500000,-26.100000,90.000000,1.100000
338.200000,8871.000000,-22.100000,-29.000000,88.000000,1.900000
334.600000,8952.000000,-22.700000,-29.500000,86.000000,2.600000
330.900000,9033.000000,-23.400000,-29.000000,78.000000,3.700000
327.300000,9113.000000,-24.000000,-30.500000,76.000000,4.500000
323.500000,9198.000000,-24.700000,-31.200000,74.000000,5.100000
319.900000,9279.000000,-25.400000,-32.700000,76.000000,5.500000
316.400000,9359.000000,-26.100000,-33.900000,80.000000,6.000000
312.800000,9442.000000,-26.700000,-35.800000,76.000000,6.600000
309.200000,9525.000000,-27.500000,-33.400000,71.000000,6.100000
305.800000,9603.000000,-27.800000,-33.300000,65.000000,5.600000
302.300000,9688.000000,-28.500000,-34.400000,55.000000,5.100000
298.700000,9774.000000,-29.000000,-34.700000,48.000000,3.600000
295.100000,9859.000000,-29.600000,-35.200000,39.000000,2.100000
291.700000,9942.000000,-30.300000,-37.400000,0.000000,0.000000
288.200000,10027.000000,-30.900000,-37.900000,242.000000,0.600000
285.000000,10107.000000,-31.400000,-38.300000,255.000000,0.900000
281.800000,10188.000000,-32.200000,-38.600000,248.000000,1.900000
278.600000,10267.000000,-32.600000,-40.200000,261.000000,2.000000
275.400000,10348.000000,-33.300000,-40.400000,293.000000,1.900000
272.300000,10429.000000,-33.900000,-41.200000,319.000000,2.600000
269.300000,10507.000000,-34.600000,-42.700000,326.000000,3.200000
266.300000,10584.000000,-35.200000,-43.100000,328.000000,3.800000
263.300000,10662.000000,-35.800000,-43.300000,329.000000,4.200000
260.400000,10740.000000,-36.500000,-44.100000,327.000000,3.900000
257.300000,10821.000000,-37.300000,-44.500000,320.000000,3.700000
254.300000,10904.000000,-38.000000,-45.300000,313.000000,3.900000
251.200000,10988.000000,-38.600000,-46.100000,315.000000,4.000000
248.100000,11073.000000,-39.400000,-47.600000,318.000000,4.800000
245.000000,11158.000000,-40.100000,-49.500000,320.000000,5.400000
241.900000,11245.000000,-41.000000,-47.200000,321.000000,5.500000
238.800000,11334.000000,-41.800000,-47.400000,321.000000,5.400000
235.700000,11422.000000,-42.600000,-47.100000,324.000000,5.700000
232.600000,11510.000000,-43.400000,-47.700000,330.000000,5.900000
229.600000,11598.000000,-44.100000,-49.100000,337.000000,6.200000
226.600000,11685.000000,-44.900000,-49.700000,342.000000,7.000000
223.600000,11773.000000,-45.600000,-51.000000,346.000000,8.700000
220.600000,11864.000000,-46.000000,-52.500000,344.000000,9.800000
217.800000,11948.000000,-46.700000,-53.200000,343.000000,10.400000
215.100000,12030.000000,-47.200000,-66.100000,345.000000,12.200000
212.400000,12114.000000,-47.500000,-64.500000,350.000000,13.800000
209.700000,12199.000000,-47.900000,-68.000000,355.000000,15.400000
207.000000,12284.000000,-48.600000,-67.400000,359.000000,16.600000
204.400000,12368.000000,-49.200000,-67.500000,2.000000,17.300000
201.800000,12452.000000,-50.100000,-66.300000,5.000000,18.000000
199.300000,12532.000000,-50.600000,-66.500000,6.000000,19.200000
196.700000,12618.000000,-51.100000,-68.700000,6.000000,21.200000
194.100000,12703.000000,-51.500000,-74.900000,6.000000,21.500000
191.600000,12790.000000,-51.900000,-67.000000,6.000000,21.200000
189.000000,12878.000000,-52.800000,-71.200000,6.000000,20.800000
186.500000,12964.000000,-53.600000,-70.200000,6.000000,20.200000
184.000000,13050.000000,-54.400000,-67.400000,6.000000,19.400000
181.500000,13137.000000,-55.100000,-68.900000,6.000000,18.900000
178.900000,13228.000000,-55.800000,-62.600000,8.000000,18.700000
176.500000,13315.000000,-56.300000,-65.500000,10.000000,19.000000
174.100000,13401.000000,-56.900000,-73.500000,14.000000,19.300000
171.700000,13489.000000,-57.300000,-78.100000,19.000000,19.600000
169.300000,13577.000000,-57.900000,-79.000000,24.000000,19.700000
167.000000,13663.000000,-58.700000,-80.300000,25.000000,19.300000
164.800000,13749.000000,-59.200000,-80.400000,24.000000,18.700000
162.500000,13834.000000,-60.000000,-79.700000,22.000000,18.000000
160.300000,13920.000000,-60.700000,-78.900000,22.000000,17.300000
158.100000,14006.000000,-61.300000,-79.200000,23.000000,16.700000
155.900000,14093.000000,-62.200000,-79.400000,19.000000,16.700000
153.700000,14181.000000,-62.900000,-78.800000,16.000000,17.200000
151.500000,14270.000000,-63.000000,-76.800000,15.000000,17.400000
149.300000,14358.000000,-63.800000,-76.200000,15.000000,17.600000
147.200000,14445.000000,-64.500000,-77.600000,15.000000,18.000000
145.100000,14534.000000,-65.200000,-80.500000,17.000000,18.000000
143.000000,14622.000000,-65.300000,-81.200000,17.000000,18.300000
140.900000,14711.000000,-66.300000,-81.600000,17.000000,18.900000
138.900000,14799.000000,-67.000000,-80.900000,18.000000,18.700000
136.800000,14891.000000,-67.800000,-80.300000,19.000000,18.200000
134.700000,14983.000000,-68.700000,-80.000000,18.000000,18.500000
132.500000,15080.000000,-69.400000,-79.800000,17.000000,19.100000
130.500000,15172.000000,-70.300000,-79.800000,18.000000,18.800000
128.400000,15266.000000,-70.800000,-80.100000,19.000000,18.300000
126.400000,15362.000000,-71.000000,-80.800000,21.000000,17.600000
124.400000,15456.000000,-71.800000,-81.800000,22.000000,17.400000
122.400000,15552.000000,-72.300000,-82.600000,23.000000,16.200000
120.400000,15647.000000,-73.000000,-83.600000,25.000000,15.000000
118.400000,15743.000000,-73.800000,-84.000000,25.000000,14.100000
116.500000,15840.000000,-74.400000,-84.300000,28.000000,12.900000
114.600000,15934.000000,-74.900000,-85.100000,34.000000,12.200000
112.800000,16028.000000,-74.700000,-85.600000,43.000000,11.000000
111.000000,16122.000000,-75.300000,-86.800000,49.000000,9.900000
109.200000,16213.000000,-76.200000,-87.200000,50.000000,9.300000
107.500000,16302.000000,-77.200000,-87.600000,46.000000,8.600000
105.900000,16393.000000,-77.300000,-87.300000,46.000000,8.700000
104.200000,16485.000000,-78.100000,-88.200000,45.000000,9.300000
102.500000,16576.000000,-77.900000,-88.300000,39.000000,9.600000
100.900000,16666.000000,-78.200000,-88.300000,37.000000,9.000000
99.300000,16757.000000,-78.700000,-88.100000,35.000000,9.600000
97.800000,16846.000000,-79.000000,-88.000000,33.000000,11.800000
96.200000,16939.000000,-78.400000,-87.400000,33.000000,14.000000
94.700000,17030.000000,-78.600000,-88.000000,33.000000,14.800000
93.100000,17124.000000,-79.500000,-89.500000,35.000000,15.600000
91.600000,17219.000000,-79.000000,-89.700000,40.000000,15.300000
90.000000,17315.000000,-79.500000,-90.900000,42.000000,14.900000
88.500000,17413.000000,-79.700000,-91.600000,45.000000,14.100000
87.000000,17511.000000,-80.200000,-93.000000,46.000000,14.000000
85.500000,17609.000000,-78.300000,-91.500000,42.000000,14.300000
84.100000,17706.000000,-78.600000,-91.900000,44.000000,13.900000
82.600000,17804.000000,-77.200000,-91.100000,55.000000,12.700000
81.200000,17903.000000,-77.300000,-92.300000,59.000000,12.300000
79.800000,18001.000000,-77.700000,-93.300000,67.000000,12.000000
78.500000,18094.000000,-76.300000,-92.700000,75.000000,12.100000
77.200000,18191.000000,-75.600000,-92.300000,66.000000,11.500000
75.900000,18289.000000,-75.800000,-92.200000,54.000000,11.400000
74.700000,18382.000000,-76.800000,-93.000000,50.000000,12.100000
73.500000,18474.000000,-77.200000,-93.400000,53.000000,11.900000
72.400000,18564.000000,-77.100000,-93.600000,52.000000,10.800000
71.200000,18662.000000,-76.700000,-93.600000,42.000000,9.900000
70.000000,18760.000000,-76.100000,-93.700000,28.000000,9.700000
68.800000,18858.000000,-75.700000,-93.400000,21.000000,10.700000
67.600000,18962.000000,-76.100000,-94.200000,28.000000,12.400000
66.400000,19065.000000,-76.200000,-95.400000,39.000000,14.800000
65.200000,19170.000000,-74.800000,-94.600000,51.000000,16.600000
64.000000,19273.000000,-72.800000,-93.100000,63.000000,17.200000
62.900000,19376.000000,-72.600000,-93.900000,67.000000,15.500000
61.800000,19478.000000,-72.900000,-95.000000,66.000000,13.100000
60.800000,19572.000000,-71.600000,-95.800000,70.000000,14.600000
59.800000,19672.000000,-70.400000,-95.600000,81.000000,17.100000
58.800000,19772.000000,-70.600000,-95.200000,92.000000,16.600000
57.900000,19871.000000,-69.700000,-95.200000,93.000000,15.600000
56.900000,19969.000000,-69.700000,-94.100000,95.000000,15.800000
56.000000,20068.000000,-69.000000,-94.800000,104.000000,16.000000
55.000000,20171.000000,-68.700000,-94.300000,109.000000,15.300000
54.100000,20274.000000,-68.000000,-93.500000,109.000000,13.000000
53.200000,20378.000000,-68.800000,-95.400000,114.000000,11.200000
